#: table_doi: 10.17182/hepdata.86210.v1/t6
#: name: Table 6
#: description: Additional systematic error for pp data: +3.0 pct -3.0 pct
Additional systematic error for PBPB 0-5 pct data: +0.08 pct -0.08 pct
Additional systematic error for PBPB 5-10 pct data: +0.24 pct -0.24 pct
Additional systematic error for PBPB 10-20 pct data: +0.46 pct -0.46 pct
Additional systematic error for PBPB 20-30 pct data: +0.81 pct -0.81 pct
Additional systematic error for PBPB 30-40 pct data: +1.26 pct -1.26 pct
Additional systematic error for PBPB 40-50 pct data: +1.86 pct -1.86 pct
Additional systematic error for PBPB 50-60 pct data: +2.64 pct -2.64 pct
Additional systematic error for PBPB 60-70 pct data: +3.67 pct -3.67 pct
Additional systematic error for PBPB 70-80 pct data: +5.01 pct -5.01 pct.

#: data_file: Fig5.yaml
#: keyword reactions: P P --> CHARGED X : PB PB --> CHARGED X
#: keyword observables: SPECTRA RATIOS
#: keyword cmenergies: 5020 and 2760
#: CENT,,,-
#: ETARAP,,,-0.8 - 0.8
#: RE,,,P P --> CHARGED X
PT [GEV],PT [GEV] LOW,PT [GEV] HIGH,RATIO OF SPECTRA (5020 GEV / 2760 GEV),stat +,stat -,sys +,sys -
0.175,0.15,0.2,1.206028,0.0005435,-0.0005435,0.084682,-0.084682
0.225,0.2,0.25,1.186364,0.000356,-0.000356,0.061759,-0.061759
0.275,0.25,0.3,1.165229,0.00033476,-0.00033476,0.054784,-0.054784
0.32499999999999996,0.3,0.35,1.160854,0.00033487,-0.00033487,0.053466,-0.053466
0.375,0.35,0.4,1.164699,0.00034585,-0.00034585,0.051493,-0.051493
0.42500000000000004,0.4,0.45,1.165812,0.00036212,-0.00036212,0.048977,-0.048977
0.475,0.45,0.5,1.169291,0.00039174,-0.00039174,0.048844,-0.048844
0.525,0.5,0.55,1.174804,0.00043136,-0.00043136,0.047224,-0.047224
0.575,0.55,0.6,1.184974,0.00047378,-0.00047378,0.047222,-0.047222
0.625,0.6,0.65,1.194564,0.00052183,-0.00052183,0.045514,-0.045514
0.675,0.65,0.7,1.19993,0.00057426,-0.00057426,0.044646,-0.044646
0.725,0.7,0.75,1.207948,0.00062728,-0.00062728,0.047,-0.047
0.775,0.75,0.8,1.213635,0.00068289,-0.00068289,0.047464,-0.047464
0.825,0.8,0.85,1.223431,0.0007448,-0.0007448,0.048253,-0.048253
0.875,0.85,0.9,1.234059,0.00081119,-0.00081119,0.051908,-0.051908
0.925,0.9,0.95,1.245663,0.00088253,-0.00088253,0.056648,-0.056648
0.975,0.95,1.0,1.256083,0.00094706,-0.00094706,0.052085,-0.052085
1.05,1.0,1.1,1.279108,0.00074196,-0.00074196,0.053755,-0.053755
1.15,1.1,1.2,1.29904,0.00083804,-0.00083804,0.055185,-0.055185
1.2999999999999998,1.2,1.4,1.325437,0.0006866,-0.0006866,0.059601,-0.059601
1.5,1.4,1.6,1.362867,0.0008661,-0.0008661,0.062274,-0.062274
1.7000000000000002,1.6,1.8,1.394392,0.0010768,-0.0010768,0.064257,-0.064257
1.9,1.8,2.0,1.430475,0.0013357,-0.0013357,0.066539,-0.066539
2.1,2.0,2.2,1.457236,0.0016683,-0.0016683,0.070263,-0.070263
2.3,2.2,2.4,1.483228,0.0020231,-0.0020231,0.068695,-0.068695
2.5,2.4,2.6,1.504939,0.0024279,-0.0024279,0.065977,-0.065977
2.7,2.6,2.8,1.540637,0.0029253,-0.0029253,0.06576,-0.06576
2.9,2.8,3.0,1.560106,0.0034549,-0.0034549,0.066954,-0.066954
3.1,3.0,3.2,1.587462,0.0041028,-0.0041028,0.072,-0.072
3.4000000000000004,3.2,3.6,1.614232,0.0035519,-0.0035519,0.070419,-0.070419
3.8,3.6,4.0,1.664133,0.004785,-0.004785,0.077094,-0.077094
4.5,4.0,5.0,1.733265,0.0047018,-0.0047018,0.076308,-0.076308
5.5,5.0,6.0,1.831843,0.008449,-0.008449,0.074372,-0.074372
7.0,6.0,8.0,1.920014,0.011319,-0.011319,0.079328,-0.079328
9.0,8.0,10.0,2.053914,0.024294,-0.024294,0.083222,-0.083222
11.5,10.0,13.0,2.131411,0.038739,-0.038739,0.089518,-0.089518
16.5,13.0,20.0,2.401797,0.069654,-0.069654,0.12963,-0.12963
25.0,20.0,30.0,2.457245,0.18225,-0.18225,0.14041,-0.14041
40.0,30.0,50.0,3.151928,0.60243,-0.60243,0.20979,-0.20979

#: CENT,,,0-5 pct
#: ETARAP,,,-0.8 - 0.8
#: RE,,,PB PB --> CHARGED X
PT [GEV],PT [GEV] LOW,PT [GEV] HIGH,RATIO OF SPECTRA (5020 GEV / 2760 GEV),stat +,stat -,sys +,sys -
0.175,0.15,0.2,1.161612,0.00045935,-0.00045935,0.085865,-0.085865
0.225,0.2,0.25,1.153403,0.00027292,-0.00027292,0.061999,-0.061999
0.275,0.25,0.3,1.142046,0.00023584,-0.00023584,0.054409,-0.054409
0.32499999999999996,0.3,0.35,1.154626,0.00022538,-0.00022538,0.041177,-0.041177
0.375,0.35,0.4,1.167121,0.00022518,-0.00022518,0.036427,-0.036427
0.42500000000000004,0.4,0.45,1.175282,0.00022757,-0.00022757,0.034795,-0.034795
0.475,0.45,0.5,1.181793,0.00023746,-0.00023746,0.033959,-0.033959
0.525,0.5,0.55,1.189367,0.00025347,-0.00025347,0.034686,-0.034686
0.575,0.55,0.6,1.200253,0.00027044,-0.00027044,0.033969,-0.033969
0.625,0.6,0.65,1.206553,0.00028941,-0.00028941,0.033503,-0.033503
0.675,0.65,0.7,1.211644,0.00031121,-0.00031121,0.032362,-0.032362
0.725,0.7,0.75,1.217319,0.00033226,-0.00033226,0.031559,-0.031559
0.775,0.75,0.8,1.220699,0.00035593,-0.00035593,0.030987,-0.030987
0.825,0.8,0.85,1.229007,0.00038252,-0.00038252,0.031004,-0.031004
0.875,0.85,0.9,1.236755,0.00041225,-0.00041225,0.029233,-0.029233
0.925,0.9,0.95,1.244028,0.00044371,-0.00044371,0.028172,-0.028172
0.975,0.95,1.0,1.250433,0.00047111,-0.00047111,0.029789,-0.029789
1.05,1.0,1.1,1.265098,0.00036306,-0.00036306,0.030487,-0.030487
1.15,1.1,1.2,1.280935,0.00040443,-0.00040443,0.031515,-0.031515
1.2999999999999998,1.2,1.4,1.299694,0.00028841,-0.00028841,0.035213,-0.035213
1.5,1.4,1.6,1.329213,0.00035047,-0.00035047,0.039934,-0.039934
1.7000000000000002,1.6,1.8,1.357994,0.00042371,-0.00042371,0.042941,-0.042941
1.9,1.8,2.0,1.386659,0.00051132,-0.00051132,0.046466,-0.046466
2.1,2.0,2.2,1.421589,0.00068538,-0.00068538,0.049981,-0.049981
2.3,2.2,2.4,1.454207,0.00082526,-0.00082526,0.051279,-0.051279
2.5,2.4,2.6,1.486171,0.00099401,-0.00099401,0.053379,-0.053379
2.7,2.6,2.8,1.517289,0.0011977,-0.0011977,0.057134,-0.057134
2.9,2.8,3.0,1.551161,0.0014374,-0.0014374,0.056468,-0.056468
3.1,3.0,3.2,1.580051,0.0017405,-0.0017405,0.059927,-0.059927
3.4000000000000004,3.2,3.6,1.619889,0.0015549,-0.0015549,0.063493,-0.063493
3.8,3.6,4.0,1.667141,0.0022487,-0.0022487,0.064656,-0.064656
4.5,4.0,5.0,1.716005,0.0024313,-0.0024313,0.067591,-0.067591
5.5,5.0,6.0,1.75185,0.0047715,-0.0047715,0.059984,-0.059984
7.0,6.0,8.0,1.786983,0.006525,-0.006525,0.061362,-0.061362
9.0,8.0,10.0,1.852914,0.012857,-0.012857,0.05882,-0.05882
11.5,10.0,13.0,1.969536,0.019617,-0.019617,0.06622,-0.06622
16.5,13.0,20.0,2.104277,0.029527,-0.029527,0.079061,-0.079061
25.0,20.0,30.0,2.391055,0.074703,-0.074703,0.10709,-0.10709
40.0,30.0,50.0,2.547473,0.16824,-0.16824,0.14342,-0.14342

#: CENT,,,5-10 pct
#: ETARAP,,,-0.8 - 0.8
#: RE,,,
PT [GEV],PT [GEV] LOW,PT [GEV] HIGH,RATIO OF SPECTRA (5020 GEV / 2760 GEV),stat +,stat -,sys +,sys -
0.175,0.15,0.2,1.160299,0.00077654,-0.00077654,0.082003,-0.082003
0.225,0.2,0.25,1.157374,0.00044665,-0.00044665,0.057666,-0.057666
0.275,0.25,0.3,1.147713,0.00037363,-0.00037363,0.051811,-0.051811
0.32499999999999996,0.3,0.35,1.158104,0.00034705,-0.00034705,0.04039,-0.04039
0.375,0.35,0.4,1.169157,0.00033947,-0.00033947,0.037202,-0.037202
0.42500000000000004,0.4,0.45,1.17679,0.00033811,-0.00033811,0.03618,-0.03618
0.475,0.45,0.5,1.182904,0.00034891,-0.00034891,0.03581,-0.03581
0.525,0.5,0.55,1.190879,0.00036901,-0.00036901,0.035401,-0.035401
0.575,0.55,0.6,1.200502,0.00039159,-0.00039159,0.035057,-0.035057
0.625,0.6,0.65,1.206877,0.00041942,-0.00041942,0.034347,-0.034347
0.675,0.65,0.7,1.211623,0.00044979,-0.00044979,0.033303,-0.033303
0.725,0.7,0.75,1.216022,0.00047886,-0.00047886,0.032781,-0.032781
0.775,0.75,0.8,1.21933,0.00051337,-0.00051337,0.031951,-0.031951
0.825,0.8,0.85,1.228124,0.00055203,-0.00055203,0.031158,-0.031158
0.875,0.85,0.9,1.235489,0.00059721,-0.00059721,0.03014,-0.03014
0.925,0.9,0.95,1.243151,0.00064978,-0.00064978,0.028338,-0.028338
0.975,0.95,1.0,1.250568,0.00068999,-0.00068999,0.029811,-0.029811
1.05,1.0,1.1,1.26389,0.00053484,-0.00053484,0.031278,-0.031278
1.15,1.1,1.2,1.280236,0.00059497,-0.00059497,0.032717,-0.032717
1.2999999999999998,1.2,1.4,1.297585,0.00039071,-0.00039071,0.036772,-0.036772
1.5,1.4,1.6,1.326095,0.00047174,-0.00047174,0.039847,-0.039847
1.7000000000000002,1.6,1.8,1.354062,0.00056489,-0.00056489,0.043212,-0.043212
1.9,1.8,2.0,1.385537,0.00067295,-0.00067295,0.045895,-0.045895
2.1,2.0,2.2,1.419955,0.00096334,-0.00096334,0.049802,-0.049802
2.3,2.2,2.4,1.45033,0.0011219,-0.0011219,0.051936,-0.051936
2.5,2.4,2.6,1.484227,0.0013305,-0.0013305,0.052,-0.052
2.7,2.6,2.8,1.515308,0.0015694,-0.0015694,0.055711,-0.055711
2.9,2.8,3.0,1.540187,0.0018489,-0.0018489,0.058533,-0.058533
3.1,3.0,3.2,1.566203,0.002154,-0.002154,0.05708,-0.05708
3.4000000000000004,3.2,3.6,1.606878,0.0017913,-0.0017913,0.06073,-0.06073
3.8,3.6,4.0,1.654046,0.0025078,-0.0025078,0.062651,-0.062651
4.5,4.0,5.0,1.701585,0.0026371,-0.0026371,0.065269,-0.065269
5.5,5.0,6.0,1.73984,0.0050316,-0.0050316,0.059174,-0.059174
7.0,6.0,8.0,1.780769,0.0068234,-0.0068234,0.058047,-0.058047
9.0,8.0,10.0,1.874375,0.013731,-0.013731,0.05743,-0.05743
11.5,10.0,13.0,1.9843,0.020828,-0.020828,0.065571,-0.065571
16.5,13.0,20.0,2.14538,0.032098,-0.032098,0.08163,-0.08163
25.0,20.0,30.0,2.370267,0.079962,-0.079962,0.11168,-0.11168
40.0,30.0,50.0,2.495516,0.17162,-0.17162,0.15715,-0.15715

#: CENT,,,10-20 pct
#: ETARAP,,,-0.8 - 0.8
#: RE,,,
PT [GEV],PT [GEV] LOW,PT [GEV] HIGH,RATIO OF SPECTRA (5020 GEV / 2760 GEV),stat +,stat -,sys +,sys -
0.175,0.15,0.2,1.158999,0.0007317,-0.0007317,0.074258,-0.074258
0.225,0.2,0.25,1.160236,0.00041996,-0.00041996,0.049255,-0.049255
0.275,0.25,0.3,1.153283,0.00034997,-0.00034997,0.042869,-0.042869
0.32499999999999996,0.3,0.35,1.163531,0.00032262,-0.00032262,0.034933,-0.034933
0.375,0.35,0.4,1.173935,0.00031414,-0.00031414,0.035655,-0.035655
0.42500000000000004,0.4,0.45,1.180605,0.00031289,-0.00031289,0.036279,-0.036279
0.475,0.45,0.5,1.188164,0.00032307,-0.00032307,0.036465,-0.036465
0.525,0.5,0.55,1.194469,0.0003431,-0.0003431,0.036425,-0.036425
0.575,0.55,0.6,1.205141,0.00036491,-0.00036491,0.036039,-0.036039
0.625,0.6,0.65,1.210284,0.00039089,-0.00039089,0.035102,-0.035102
0.675,0.65,0.7,1.215164,0.00041942,-0.00041942,0.033653,-0.033653
0.725,0.7,0.75,1.220224,0.0004468,-0.0004468,0.032955,-0.032955
0.775,0.75,0.8,1.22391,0.00047964,-0.00047964,0.032009,-0.032009
0.825,0.8,0.85,1.232345,0.00051877,-0.00051877,0.031373,-0.031373
0.875,0.85,0.9,1.238677,0.0005646,-0.0005646,0.029927,-0.029927
0.925,0.9,0.95,1.249517,0.00060687,-0.00060687,0.028615,-0.028615
0.975,0.95,1.0,1.253445,0.00065262,-0.00065262,0.03029,-0.03029
1.05,1.0,1.1,1.269051,0.00050046,-0.00050046,0.031588,-0.031588
1.15,1.1,1.2,1.285163,0.00055865,-0.00055865,0.03237,-0.03237
1.2999999999999998,1.2,1.4,1.302696,0.00035691,-0.00035691,0.035836,-0.035836
1.5,1.4,1.6,1.331886,0.0004311,-0.0004311,0.03919,-0.03919
1.7000000000000002,1.6,1.8,1.360651,0.00051443,-0.00051443,0.042563,-0.042563
1.9,1.8,2.0,1.390997,0.00060554,-0.00060554,0.045783,-0.045783
2.1,2.0,2.2,1.424556,0.00089764,-0.00089764,0.047684,-0.047684
2.3,2.2,2.4,1.454142,0.0010347,-0.0010347,0.049685,-0.049685
2.5,2.4,2.6,1.481958,0.0012025,-0.0012025,0.050382,-0.050382
2.7,2.6,2.8,1.51087,0.0014015,-0.0014015,0.052659,-0.052659
2.9,2.8,3.0,1.544086,0.0016439,-0.0016439,0.055981,-0.055981
3.1,3.0,3.2,1.567618,0.0019272,-0.0019272,0.055622,-0.055622
3.4000000000000004,3.2,3.6,1.605566,0.0015034,-0.0015034,0.057512,-0.057512
3.8,3.6,4.0,1.64624,0.0020753,-0.0020753,0.059325,-0.059325
4.5,4.0,5.0,1.687213,0.0021153,-0.0021153,0.061419,-0.061419
5.5,5.0,6.0,1.731286,0.0038961,-0.0038961,0.055767,-0.055767
7.0,6.0,8.0,1.780478,0.0052325,-0.0052325,0.053933,-0.053933
9.0,8.0,10.0,1.88244,0.010646,-0.010646,0.056564,-0.056564
11.5,10.0,13.0,1.95399,0.015774,-0.015774,0.064132,-0.064132
16.5,13.0,20.0,2.169095,0.025172,-0.025172,0.085412,-0.085412
25.0,20.0,30.0,2.333463,0.063039,-0.063039,0.11902,-0.11902
40.0,30.0,50.0,2.474213,0.13419,-0.13419,0.17975,-0.17975

#: CENT,,,20-30 pct
#: ETARAP,,,-0.8 - 0.8
#: RE,,,
PT [GEV],PT [GEV] LOW,PT [GEV] HIGH,RATIO OF SPECTRA (5020 GEV / 2760 GEV),stat +,stat -,sys +,sys -
0.175,0.15,0.2,1.167878,0.00082994,-0.00082994,0.070749,-0.070749
0.225,0.2,0.25,1.171751,0.00047966,-0.00047966,0.045081,-0.045081
0.275,0.25,0.3,1.164349,0.00040304,-0.00040304,0.039135,-0.039135
0.32499999999999996,0.3,0.35,1.174148,0.00037383,-0.00037383,0.034327,-0.034327
0.375,0.35,0.4,1.183581,0.00036665,-0.00036665,0.037456,-0.037456
0.42500000000000004,0.4,0.45,1.190022,0.00036544,-0.00036544,0.039468,-0.039468
0.475,0.45,0.5,1.197629,0.00038064,-0.00038064,0.040095,-0.040095
0.525,0.5,0.55,1.204729,0.00040424,-0.00040424,0.039566,-0.039566
0.575,0.55,0.6,1.214836,0.00043255,-0.00043255,0.038328,-0.038328
0.625,0.6,0.65,1.220711,0.00046206,-0.00046206,0.037233,-0.037233
0.675,0.65,0.7,1.224985,0.00049996,-0.00049996,0.03608,-0.03608
0.725,0.7,0.75,1.228874,0.00053812,-0.00053812,0.034644,-0.034644
0.775,0.75,0.8,1.233625,0.00057432,-0.00057432,0.033863,-0.033863
0.825,0.8,0.85,1.241314,0.00062789,-0.00062789,0.032456,-0.032456
0.875,0.85,0.9,1.251454,0.00066991,-0.00066991,0.031517,-0.031517
0.925,0.9,0.95,1.259906,0.00073035,-0.00073035,0.029775,-0.029775
0.975,0.95,1.0,1.265104,0.00078248,-0.00078248,0.031851,-0.031851
1.05,1.0,1.1,1.281493,0.0006037,-0.0006037,0.033679,-0.033679
1.15,1.1,1.2,1.295989,0.00067424,-0.00067424,0.033807,-0.033807
1.2999999999999998,1.2,1.4,1.314754,0.00043607,-0.00043607,0.036757,-0.036757
1.5,1.4,1.6,1.343206,0.00052865,-0.00052865,0.039866,-0.039866
1.7000000000000002,1.6,1.8,1.375536,0.00063047,-0.00063047,0.042537,-0.042537
1.9,1.8,2.0,1.406903,0.00073315,-0.00073315,0.049689,-0.049689
2.1,2.0,2.2,1.437861,0.0010783,-0.0010783,0.050492,-0.050492
2.3,2.2,2.4,1.467488,0.0012759,-0.0012759,0.051522,-0.051522
2.5,2.4,2.6,1.49462,0.0014823,-0.0014823,0.051651,-0.051651
2.7,2.6,2.8,1.522557,0.0017157,-0.0017157,0.054994,-0.054994
2.9,2.8,3.0,1.552841,0.0020195,-0.0020195,0.053161,-0.053161
3.1,3.0,3.2,1.580676,0.0022835,-0.0022835,0.053989,-0.053989
3.4000000000000004,3.2,3.6,1.602645,0.0018152,-0.0018152,0.05517,-0.05517
3.8,3.6,4.0,1.648807,0.0024731,-0.0024731,0.056884,-0.056884
4.5,4.0,5.0,1.690503,0.0024606,-0.0024606,0.059648,-0.059648
5.5,5.0,6.0,1.728364,0.0045265,-0.0045265,0.055176,-0.055176
7.0,6.0,8.0,1.789354,0.0059577,-0.0059577,0.053972,-0.053972
9.0,8.0,10.0,1.895718,0.01211,-0.01211,0.055238,-0.055238
11.5,10.0,13.0,1.967062,0.018061,-0.018061,0.063201,-0.063201
16.5,13.0,20.0,2.125817,0.028111,-0.028111,0.080602,-0.080602
25.0,20.0,30.0,2.396728,0.073652,-0.073652,0.11636,-0.11636
40.0,30.0,50.0,2.561817,0.1639,-0.1639,0.17455,-0.17455

#: CENT,,,30-40 pct
#: ETARAP,,,-0.8 - 0.8
#: RE,,,
PT [GEV],PT [GEV] LOW,PT [GEV] HIGH,RATIO OF SPECTRA (5020 GEV / 2760 GEV),stat +,stat -,sys +,sys -
0.175,0.15,0.2,1.173489,0.00086652,-0.00086652,0.067067,-0.067067
0.225,0.2,0.25,1.181502,0.00050795,-0.00050795,0.04209,-0.04209
0.275,0.25,0.3,1.1752,0.00043267,-0.00043267,0.037559,-0.037559
0.32499999999999996,0.3,0.35,1.183075,0.00040801,-0.00040801,0.034114,-0.034114
0.375,0.35,0.4,1.192007,0.00040267,-0.00040267,0.038308,-0.038308
0.42500000000000004,0.4,0.45,1.198764,0.00040532,-0.00040532,0.040876,-0.040876
0.475,0.45,0.5,1.207314,0.00042418,-0.00042418,0.041926,-0.041926
0.525,0.5,0.55,1.214178,0.00045309,-0.00045309,0.040697,-0.040697
0.575,0.55,0.6,1.225259,0.00048491,-0.00048491,0.038694,-0.038694
0.625,0.6,0.65,1.230468,0.00052221,-0.00052221,0.037657,-0.037657
0.675,0.65,0.7,1.234002,0.00056303,-0.00056303,0.036519,-0.036519
0.725,0.7,0.75,1.238613,0.00060482,-0.00060482,0.034961,-0.034961
0.775,0.75,0.8,1.243411,0.00064967,-0.00064967,0.033861,-0.033861
0.825,0.8,0.85,1.252068,0.0007098,-0.0007098,0.033755,-0.033755
0.875,0.85,0.9,1.260952,0.0007717,-0.0007717,0.031856,-0.031856
0.925,0.9,0.95,1.271449,0.0008238,-0.0008238,0.02994,-0.02994
0.975,0.95,1.0,1.276531,0.00088975,-0.00088975,0.032135,-0.032135
1.05,1.0,1.1,1.292075,0.00068494,-0.00068494,0.032698,-0.032698
1.15,1.1,1.2,1.309274,0.00077049,-0.00077049,0.033783,-0.033783
1.2999999999999998,1.2,1.4,1.326882,0.00051075,-0.00051075,0.036377,-0.036377
1.5,1.4,1.6,1.360906,0.00060928,-0.00060928,0.039465,-0.039465
1.7000000000000002,1.6,1.8,1.391961,0.0007361,-0.0007361,0.042596,-0.042596
1.9,1.8,2.0,1.423066,0.0008668,-0.0008668,0.04581,-0.04581
2.1,2.0,2.2,1.450791,0.0012712,-0.0012712,0.045983,-0.045983
2.3,2.2,2.4,1.479703,0.0015143,-0.0015143,0.048865,-0.048865
2.5,2.4,2.6,1.501085,0.0017685,-0.0017685,0.048164,-0.048164
2.7,2.6,2.8,1.530216,0.0020076,-0.0020076,0.049312,-0.049312
2.9,2.8,3.0,1.563155,0.0023772,-0.0023772,0.051746,-0.051746
3.1,3.0,3.2,1.577036,0.0027694,-0.0027694,0.052072,-0.052072
3.4000000000000004,3.2,3.6,1.609059,0.0021894,-0.0021894,0.053611,-0.053611
3.8,3.6,4.0,1.647804,0.0029444,-0.0029444,0.055173,-0.055173
4.5,4.0,5.0,1.693837,0.0029469,-0.0029469,0.057941,-0.057941
5.5,5.0,6.0,1.739942,0.0052762,-0.0052762,0.053032,-0.053032
7.0,6.0,8.0,1.807417,0.0070235,-0.0070235,0.051634,-0.051634
9.0,8.0,10.0,1.912733,0.014271,-0.014271,0.052902,-0.052902
11.5,10.0,13.0,2.025024,0.021899,-0.021899,0.063169,-0.063169
16.5,13.0,20.0,2.249223,0.035966,-0.035966,0.087181,-0.087181
25.0,20.0,30.0,2.566331,0.097327,-0.097327,0.13453,-0.13453
40.0,30.0,50.0,2.717566,0.22518,-0.22518,0.2138,-0.2138

#: CENT,,,40-50 pct
#: ETARAP,,,-0.8 - 0.8
#: RE,,,
PT [GEV],PT [GEV] LOW,PT [GEV] HIGH,RATIO OF SPECTRA (5020 GEV / 2760 GEV),stat +,stat -,sys +,sys -
0.175,0.15,0.2,1.183185,0.00062994,-0.00062994,0.065297,-0.065297
0.225,0.2,0.25,1.192414,0.00039812,-0.00039812,0.040797,-0.040797
0.275,0.25,0.3,1.185091,0.00036034,-0.00036034,0.037295,-0.037295
0.32499999999999996,0.3,0.35,1.193342,0.00035263,-0.00035263,0.034809,-0.034809
0.375,0.35,0.4,1.202259,0.00035737,-0.00035737,0.039588,-0.039588
0.42500000000000004,0.4,0.45,1.209734,0.00036744,-0.00036744,0.041939,-0.041939
0.475,0.45,0.5,1.218617,0.00039058,-0.00039058,0.042566,-0.042566
0.525,0.5,0.55,1.225605,0.00042223,-0.00042223,0.041067,-0.041067
0.575,0.55,0.6,1.235861,0.00045527,-0.00045527,0.039272,-0.039272
0.625,0.6,0.65,1.24233,0.00049263,-0.00049263,0.037911,-0.037911
0.675,0.65,0.7,1.244731,0.00053202,-0.00053202,0.036799,-0.036799
0.725,0.7,0.75,1.252022,0.00057526,-0.00057526,0.035286,-0.035286
0.775,0.75,0.8,1.255973,0.0006171,-0.0006171,0.034151,-0.034151
0.825,0.8,0.85,1.264923,0.00066634,-0.00066634,0.033845,-0.033845
0.875,0.85,0.9,1.273521,0.00072035,-0.00072035,0.032371,-0.032371
0.925,0.9,0.95,1.285058,0.00077934,-0.00077934,0.029987,-0.029987
0.975,0.95,1.0,1.289681,0.00082802,-0.00082802,0.03216,-0.03216
1.05,1.0,1.1,1.305514,0.0006379,-0.0006379,0.033583,-0.033583
1.15,1.1,1.2,1.323105,0.00071542,-0.00071542,0.034528,-0.034528
1.2999999999999998,1.2,1.4,1.342298,0.00052454,-0.00052454,0.036984,-0.036984
1.5,1.4,1.6,1.374435,0.00064235,-0.00064235,0.04059,-0.04059
1.7000000000000002,1.6,1.8,1.409689,0.00078316,-0.00078316,0.044889,-0.044889
1.9,1.8,2.0,1.439246,0.00095335,-0.00095335,0.046196,-0.046196
2.1,2.0,2.2,1.466729,0.0012566,-0.0012566,0.04891,-0.04891
2.3,2.2,2.4,1.500096,0.0015195,-0.0015195,0.049607,-0.049607
2.5,2.4,2.6,1.520954,0.0017902,-0.0017902,0.050718,-0.050718
2.7,2.6,2.8,1.548003,0.0021511,-0.0021511,0.052674,-0.052674
2.9,2.8,3.0,1.570911,0.0025541,-0.0025541,0.055865,-0.055865
3.1,3.0,3.2,1.589216,0.0029921,-0.0029921,0.053897,-0.053897
3.4000000000000004,3.2,3.6,1.616167,0.0025707,-0.0025707,0.055195,-0.055195
3.8,3.6,4.0,1.653688,0.0035206,-0.0035206,0.055062,-0.055062
4.5,4.0,5.0,1.698725,0.0035217,-0.0035217,0.05773,-0.05773
5.5,5.0,6.0,1.752571,0.0063308,-0.0063308,0.05449,-0.05449
7.0,6.0,8.0,1.819723,0.008431,-0.008431,0.056454,-0.056454
9.0,8.0,10.0,1.936624,0.017413,-0.017413,0.057619,-0.057619
11.5,10.0,13.0,2.104522,0.028006,-0.028006,0.06611,-0.06611
16.5,13.0,20.0,2.232,0.043726,-0.043726,0.076387,-0.076387
25.0,20.0,30.0,2.539754,0.11996,-0.11996,0.10214,-0.10214
40.0,30.0,50.0,3.181541,0.34304,-0.34304,0.15789,-0.15789

#: CENT,,,50-60 pct
#: ETARAP,,,-0.8 - 0.8
#: RE,,,
PT [GEV],PT [GEV] LOW,PT [GEV] HIGH,RATIO OF SPECTRA (5020 GEV / 2760 GEV),stat +,stat -,sys +,sys -
0.175,0.15,0.2,1.194094,0.00072422,-0.00072422,0.06359,-0.06359
